tita titas E[V] ic ti d[cm] L lambda omega
0.000010 0.000010 0.000000 -0.004824 0.000000 20.000000 0.000009 1.000000 1.000000 0.000000 0.000000
0.003360 0.065157 -0.006336 -0.004824 1333333.375000 20.000000 0.000009 1.000000 1.000000 0.000000 0.000000
0.006700 0.092142 -0.008804 -0.004824 2666666.750000 20.000000 0.000009 1.000000 1.000000 0.000000 0.000000
0.010038 0.112848 -0.010656 -0.004824 4000000.000000 20.000000 0.000009 1.000000 1.000000 0.000000 0.000000
0.013376 0.130304 -0.012194 -0.004824 5333333.500000 20.000000 0.000009 1.000000 1.000000 0.000000 0.000000
0.016713 0.145683 -0.013536 -0.004824 6666666.500000 20.000000 0.000009 1.000000 1.000000 0.000000 0.000000
0.020050 0.159587 -0.014740 -0.004824 8000000.000000 20.000000 0.000009 1.000000 1.000000 0.000000 0.000000
0.023386 0.172373 -0.015840 -0.004824 9333333.000000 20.000000 0.000009 1.000000 1.000000 0.000000 0.000000
0.026723 0.184273 -0.016861 -0.004824 10666667.000000 20.000000 0.000009 1.000000 1.000000 0.000000 0.000000
0.030059 0.195451 -0.017816 -0.004824 12000000.000000 20.000000 0.000009 1.000000 1.000000 0.000000 0.000000
0.033395 0.206023 -0.018718 -0.004824 13333333.000000 20.000000 0.000009 1.000000 1.000000 0.000000 0.000000
0.036731 0.216078 -0.019574 -0.004824 14666667.000000 20.000000 0.000009 1.000000 1.000000 0.000000 0.000000
0.040066 0.225686 -0.020392 -0.004824 16000000.000000 20.000000 0.000009 1.000000 1.000000 0.000000 0.000000
0.043402 0.234901 -0.021176 -0.004824 17333334.000000 20.000000 0.000009 1.000000 1.000000 0.000000 0.000000
0.046738 0.243768 -0.021931 -0.004824 18666666.000000 20.000000 0.000009 1.000000 1.000000 0.000000 0.000000
0.050073 0.252323 -0.022660 -0.004824 20000000.000000 20.000000 0.000009 1.000000 1.000000 0.000000 0.000000
0.053409 0.260598 -0.023365 -0.004824 21333334.000000 20.000000 0.000009 1.000000 1.000000 0.000000 0.000000
0.056744 0.268618 -0.024050 -0.004824 22666666.000000 20.000000 0.000009 1.000000 1.000000 0.000000 0.000000
0.060079 0.276405 -0.024716 -0.004824 24000000.000000 20.000000 0.000009 1.000000 1.000000 0.000000 0.000000
0.063415 0.283979 -0.025365 -0.004824 25333334.000000 20.000000 0.000009 1.000000 1.000000 0.000000 0.000000
0.066750 0.291356 -0.025998 -0.004824 26666666.000000 20.000000 0.000009 1.000000 1.000000 0.000000 0.000000
0.070085 0.298551 -0.026618 -0.004824 28000000.000000 20.000000 0.000009 1.000000 1.000000 0.000000 0.000000
0.073420 0.305576 -0.027224 -0.004824 29333334.000000 20.000000 0.000009 1.000000 1.000000 0.000000 0.000000
0.076755 0.312444 -0.027818 -0.004824 30666666.000000 20.000000 0.000009 1.000000 1.000000 0.000000 0.000000
0.080091 0.319164 -0.028401 -0.004824 32000000.000000 20.000000 0.000009 1.000000 1.000000 0.000000 0.000000
0.083426 0.325745 -0.028974 -0.004824 33333334.000000 20.000000 0.000009 1.000000 1.000000 0.000000 0.000000
0.086761 0.332196 -0.029538 -0.004824 34666668.000000 20.000000 0.000009 1.000000 1.000000 0.000000 0.000000
0.090096 0.338524 -0.030092 -0.004824 36000000.000000 20.000000 0.000009 1.000000 1.000000 0.000000 0.000000
0.093431 0.344736 -0.030638 -0.004824 37333332.000000 20.000000 0.000009 1.000000 1.000000 0.000000 0.000000
0.096766 0.350838 -0.031177 -0.004824 38666668.000000 20.000000 0.000009 1.000000 1.000000 0.000000 0.000000
0.100101 0.356836 -0.031708 -0.004824 40000000.000000 20.000000 0.000009 1.000000 1.000000 0.000000 0.000000
0.103436 0.362735 -0.032233 -0.004824 41333332.000000 20.000000 0.000009 1.000000 1.000000 0.000000 0.000000
0.106771 0.368540 -0.032751 -0.004824 42666668.000000 20.000000 0.000009 1.000000 1.000000 0.000000 0.000000
0.110106 0.374255 -0.033264 -0.004824 44000000.000000 20.000000 0.000009 1.000000 1.000000 0.000000 0.000000
0.113441 0.379885 -0.033770 -0.004824 45333332.000000 20.000000 0.000009 1.000000 1.000000 0.000000 0.000000
0.116776 0.385432 -0.034272 -0.004824 46666668.000000 20.000000 0.000009 1.000000 1.000000 0.000000 0.000000
0.120111 0.390902 -0.034769 -0.004824 48000000.000000 20.000000 0.000009 1.000000 1.000000 0.000000 0.000000
0.123446 0.396296 -0.035261 -0.004824 49333332.000000 20.000000 0.000009 1.000000 1.000000 0.000000 0.000000
0.126782 0.401619 -0.035748 -0.004824 50666668.000000 20.000000 0.000009 1.000000 1.000000 0.000000 0.000000
0.130117 0.406874 -0.036232 -0.004824 52000000.000000 20.000000 0.000009 1.000000 1.000000 0.000000 0.000000
0.133452 0.412062 -0.036712 -0.004824 53333332.000000 20.000000 0.000009 1.000000 1.000000 0.000000 0.000000
0.136787 0.417186 -0.037188 -0.004824 54666668.000000 20.000000 0.000009 1.000000 1.000000 0.000000 0.000000
0.140122 0.422250 -0.037661 -0.004824 56000000.000000 20.000000 0.000009 1.000000 1.000000 0.000000 0.000000
0.143457 0.427256 -0.038131 -0.004824 57333332.000000 20.000000 0.000009 1.000000 1.000000 0.000000 0.000000
0.146792 0.432205 -0.038598 -0.004824 58666668.000000 20.000000 0.000009 1.000000 1.000000 0.000000 0.000000
0.150127 0.437099 -0.039062 -0.004824 60000000.000000 20.000000 0.000009 1.000000 1.000000 0.000000 0.000000
0.153462 0.441942 -0.039523 -0.004824 61333332.000000 20.000000 0.000009 1.000000 1.000000 0.000000 0.000000
0.156797 0.446734 -0.039982 -0.004824 62666668.000000 20.000000 0.000009 1.000000 1.000000 0.000000 0.000000
0.160132 0.451477 -0.040439 -0.004824 64000000.000000 20.000000 0.000009 1.000000 1.000000 0.000000 0.000000
0.163467 0.456174 -0.040894 -0.004824 65333332.000000 20.000000 0.000009 1.000000 1.000000 0.000000 0.000000
0.166802 0.460826 -0.041347 -0.004824 66666668.000000 20.000000 0.000009 1.000000 1.000000 0.000000 0.000000
0.170137 0.465434 -0.041798 -0.004824 68000000.000000 20.000000 0.000009 1.000000 1.000000 0.000000 0.000000
0.173472 0.470000 -0.042247 -0.004824 69333336.000000 20.000000 0.000009 1.000000 1.000000 0.000000 0.000000
0.176807 0.474525 -0.042695 -0.004824 70666664.000000 20.000000 0.000009 1.000000 1.000000 0.000000 0.000000
0.180142 0.479011 -0.043142 -0.004824 72000000.000000 20.000000 0.000009 1.000000 1.000000 0.000000 0.000000
0.183477 0.483460 -0.043587 -0.004824 73333336.000000 20.000000 0.000009 1.000000 1.000000 0.000000 0.000000
0.186812 0.487872 -0.044032 -0.004824 74666664.000000 20.000000 0.000009 1.000000 1.000000 0.000000 0.000000
0.190147 0.492248 -0.044475 -0.004824 76000000.000000 20.000000 0.000009 1.000000 1.000000 0.000000 0.000000
0.193482 0.496591 -0.044918 -0.004824 77333336.000000 20.000000 0.000009 1.000000 1.000000 0.000000 0.000000
0.196817 0.500901 -0.045360 -0.004824 78666664.000000 20.000000 0.000009 1.000000 1.000000 0.000000 0.000000
0.200152 0.505178 -0.045801 -0.004824 80000000.000000 20.000000 0.000009 1.000000 1.000000 0.000000 0.000000
0.203487 0.509425 -0.046242 -0.004824 81333336.000000 20.000000 0.000009 1.000000 1.000000 0.000000 0.000000
0.206822 0.513642 -0.046682 -0.004824 82666664.000000 20.000000 0.000009 1.000000 1.000000 0.000000 0.000000
0.210157 0.517831 -0.047123 -0.004824 84000000.000000 20.000000 0.000009 1.000000 1.000000 0.000000 0.000000
0.213492 0.521992 -0.047563 -0.004824 85333336.000000 20.000000 0.000009 1.000000 1.000000 0.000000 0.000000
0.216827 0.526125 -0.048003 -0.004824 86666664.000000 20.000000 0.000009 1.000000 1.000000 0.000000 0.000000
0.220162 0.530233 -0.048443 -0.004824 88000000.000000 20.000000 0.000009 1.000000 1.000000 0.000000 0.000000
0.223497 0.534316 -0.048883 -0.004824 89333336.000000 20.000000 0.000009 1.000000 1.000000 0.000000 0.000000
0.226832 0.538374 -0.049324 -0.004824 90666664.000000 20.000000 0.000009 1.000000 1.000000 0.000000 0.000000
0.230167 0.542409 -0.049765 -0.004824 92000000.000000 20.000000 0.000009 1.000000 1.000000 0.000000 0.000000
0.233502 0.546421 -0.050207 -0.004824 93333336.000000 20.000000 0.000009 1.000000 1.000000 0.000000 0.000000
0.236837 0.550411 -0.050649 -0.004824 94666664.000000 20.000000 0.000009 1.000000 1.000000 0.000000 0.000000
0.240172 0.554380 -0.051092 -0.004824 96000000.000000 20.000000 0.000009 1.000000 1.000000 0.000000 0.000000
0.243507 0.558328 -0.051535 -0.004824 97333336.000000 20.000000 0.000009 1.000000 1.000000 0.000000 0.000000
0.246842 0.562256 -0.051980 -0.004824 98666664.000000 20.000000 0.000009 1.000000 1.000000 0.000000 0.000000
0.250177 0.566165 -0.052425 -0.004824 100000000.000000 20.000000 0.000009 1.000000 1.000000 0.000000 0.000000
0.253512 0.570055 -0.052872 -0.004824 101333336.000000 20.000000 0.000009 1.000000 1.000000 0.000000 0.000000
0.256847 0.573928 -0.053319 -0.004824 102666664.000000 20.000000 0.000009 1.000000 1.000000 0.000000 0.000000
0.260182 0.577783 -0.053769 -0.004824 104000000.000000 20.000000 0.000009 1.000000 1.000000 0.000000 0.000000
0.263517 0.581621 -0.054219 -0.004824 105333336.000000 20.000000 0.000009 1.000000 1.000000 0.000000 0.000000
0.266852 0.585442 -0.054671 -0.004824 106666664.000000 20.000000 0.000009 1.000000 1.000000 0.000000 0.000000
0.270187 0.589248 -0.055124 -0.004824 108000000.000000 20.000000 0.000009 1.000000 1.000000 0.000000 0.000000
0.273522 0.593039 -0.055579 -0.004824 109333336.000000 20.000000 0.000009 1.000000 1.000000 0.000000 0.000000
0.276857 0.596815 -0.056036 -0.004824 110666664.000000 20.000000 0.000009 1.000000 1.000000 0.000000 0.000000
0.280192 0.600577 -0.056495 -0.004824 112000000.000000 20.000000 0.000009 1.000000 1.000000 0.000000 0.000000
0.283527 0.604324 -0.056956 -0.004824 113333336.000000 20.000000 0.000009 1.000000 1.000000 0.000000 0.000000
0.286862 0.608059 -0.057418 -0.004824 114666664.000000 20.000000 0.000009 1.000000 1.000000 0.000000 0.000000
0.290197 0.611780 -0.057883 -0.004824 116000000.000000 20.000000 0.000009 1.000000 1.000000 0.000000 0.000000
0.293532 0.615489 -0.058350 -0.004824 117333336.000000 20.000000 0.000009 1.000000 1.000000 0.000000 0.000000
0.296867 0.619186 -0.058820 -0.004824 118666664.000000 20.000000 0.000009 1.000000 1.000000 0.000000 0.000000
0.300202 0.622871 -0.059292 -0.004824 120000000.000000 20.000000 0.000009 1.000000 1.000000 0.000000 0.000000
0.303537 0.626545 -0.059766 -0.004824 121333336.000000 20.000000 0.000009 1.000000 1.000000 0.000000 0.000000
0.306872 0.630208 -0.060244 -0.004824 122666664.000000 20.000000 0.000009 1.000000 1.000000 0.000000 0.000000
0.310207 0.633860 -0.060723 -0.004824 124000000.000000 20.000000 0.000009 1.000000 1.000000 0.000000 0.000000
0.313542 0.637502 -0.061206 -0.004824 125333336.000000 20.000000 0.000009 1.000000 1.000000 0.000000 0.000000
0.316877 0.641134 -0.061692 -0.004824 126666664.000000 20.000000 0.000009 1.000000 1.000000 0.000000 0.000000
0.320212 0.644756 -0.062181 -0.004824 128000000.000000 20.000000 0.000009 1.000000 1.000000 0.000000 0.000000
0.323547 0.648369 -0.062673 -0.004824 129333336.000000 20.000000 0.000009 1.000000 1.000000 0.000000 0.000000
0.326882 0.651973 -0.063168 -0.004824 130666664.000000 20.000000 0.000009 1.000000 1.000000 0.000000 0.000000
0.330217 0.655568 -0.063667 -0.004824 132000000.000000 20.000000 0.000009 1.000000 1.000000 0.000000 0.000000
0.333552 0.659155 -0.064169 -0.004824 133333336.000000 20.000000 0.000009 1.000000 1.000000 0.000000 0.000000
0.336887 0.662734 -0.064675 -0.004824 134666672.000000 20.000000 0.000009 1.000000 1.000000 0.000000 0.000000
0.340222 0.666304 -0.065185 -0.004824 136000000.000000 20.000000 0.000009 1.000000 1.000000 0.000000 0.000000
0.343557 0.669868 -0.065699 -0.004824 137333328.000000 20.000000 0.000009 1.000000 1.000000 0.000000 0.000000
0.346892 0.673423 -0.066216 -0.004824 138666672.000000 20.000000 0.000009 1.000000 1.000000 0.000000 0.000000
0.350227 0.676972 -0.066738 -0.004824 140000000.000000 20.000000 0.000009 1.000000 1.000000 0.000000 0.000000
0.353562 0.680514 -0.067264 -0.004824 141333328.000000 20.000000 0.000009 1.000000 1.000000 0.000000 0.000000
0.356897 0.684049 -0.067795 -0.004824 142666672.000000 20.000000 0.000009 1.000000 1.000000 0.000000 0.000000
0.360232 0.687577 -0.068330 -0.004824 144000000.000000 20.000000 0.000009 1.000000 1.000000 0.000000 0.000000
0.363567 0.691099 -0.068869 -0.004824 145333328.000000 20.000000 0.000009 1.000000 1.000000 0.000000 0.000000
0.366902 0.694616 -0.069414 -0.004824 146666672.000000 20.000000 0.000009 1.000000 1.000000 0.000000 0.000000
0.370237 0.698126 -0.069964 -0.004824 148000000.000000 20.000000 0.000009 1.000000 1.000000 0.000000 0.000000
0.373572 0.701630 -0.070518 -0.004824 149333328.000000 20.000000 0.000009 1.000000 1.000000 0.000000 0.000000
0.376907 0.705130 -0.071078 -0.004824 150666672.000000 20.000000 0.000009 1.000000 1.000000 0.000000 0.000000
0.380242 0.708623 -0.071644 -0.004824 152000000.000000 20.000000 0.000009 1.000000 1.000000 0.000000 0.000000
0.383577 0.712112 -0.072215 -0.004824 153333328.000000 20.000000 0.000009 1.000000 1.000000 0.000000 0.000000
0.386912 0.715596 -0.072792 -0.004824 154666672.000000 20.000000 0.000009 1.000000 1.000000 0.000000 0.000000
0.390247 0.719075 -0.073375 -0.004824 156000000.000000 20.000000 0.000009 1.000000 1.000000 0.000000 0.000000
0.393582 0.722549 -0.073964 -0.004824 157333328.000000 20.000000 0.000009 1.000000 1.000000 0.000000 0.000000
0.396917 0.726018 -0.074559 -0.004824 158666672.000000 20.000000 0.000009 1.000000 1.000000 0.000000 0.000000
0.400252 0.729484 -0.075161 -0.004824 160000000.000000 20.000000 0.000009 1.000000 1.000000 0.000000 0.000000
0.403587 0.732945 -0.075770 -0.004824 161333328.000000 20.000000 0.000009 1.000000 1.000000 0.000000 0.000000
0.406922 0.736402 -0.076386 -0.004824 162666672.000000 20.000000 0.000009 1.000000 1.000000 0.000000 0.000000
0.410257 0.739855 -0.077009 -0.004824 164000000.000000 20.000000 0.000009 1.000000 1.000000 0.000000 0.000000
0.413592 0.743304 -0.077639 -0.004824 165333328.000000 20.000000 0.000009 1.000000 1.000000 0.000000 0.000000
0.416927 0.746750 -0.078277 -0.004824 166666672.000000 20.000000 0.000009 1.000000 1.000000 0.000000 0.000000
0.420262 0.750192 -0.078922 -0.004824 168000000.000000 20.000000 0.000009 1.000000 1.000000 0.000000 0.000000
0.423597 0.753630 -0.079576 -0.004824 169333328.000000 20.000000 0.000009 1.000000 1.000000 0.000000 0.000000
0.426932 0.757065 -0.080238 -0.004824 170666672.000000 20.000000 0.000009 1.000000 1.000000 0.000000 0.000000
0.430267 0.760497 -0.080909 -0.004824 172000000.000000 20.000000 0.000009 1.000000 1.000000 0.000000 0.000000
0.433602 0.763926 -0.081589 -0.004824 173333328.000000 20.000000 0.000009 1.000000 1.000000 0.000000 0.000000
0.436937 0.767352 -0.082278 -0.004824 174666672.000000 20.000000 0.000009 1.000000 1.000000 0.000000 0.000000
0.440272 0.770775 -0.082977 -0.004824 176000000.000000 20.000000 0.000009 1.000000 1.000000 0.000000 0.000000
0.443607 0.774195 -0.083685 -0.004824 177333328.000000 20.000000 0.000009 1.000000 1.000000 0.000000 0.000000
0.446942 0.777612 -0.084404 -0.004824 178666672.000000 20.000000 0.000009 1.000000 1.000000 0.000000 0.000000
0.450277 0.781026 -0.085133 -0.004824 180000000.000000 20.000000 0.000009 1.000000 1.000000 0.000000 0.000000
0.453612 0.784438 -0.085873 -0.004824 181333328.000000 20.000000 0.000009 1.000000 1.000000 0.000000 0.000000
0.456947 0.787848 -0.086624 -0.004824 182666672.000000 20.000000 0.000009 1.000000 1.000000 0.000000 0.000000
0.460282 0.791255 -0.087387 -0.004824 184000000.000000 20.000000 0.000009 1.000000 1.000000 0.000000 0.000000
0.463617 0.794659 -0.088162 -0.004824 185333328.000000 20.000000 0.000009 1.000000 1.000000 0.000000 0.000000
0.466952 0.798062 -0.088949 -0.004824 186666672.000000 20.000000 0.000009 1.000000 1.000000 0.000000 0.000000
0.470287 0.801462 -0.089750 -0.004824 188000000.000000 20.000000 0.000009 1.000000 1.000000 0.000000 0.000000
0.473622 0.804860 -0.090564 -0.004824 189333328.000000 20.000000 0.000009 1.000000 1.000000 0.000000 0.000000
0.476957 0.808257 -0.091392 -0.004824 190666672.000000 20.000000 0.000009 1.000000 1.000000 0.000000 0.000000
0.480292 0.811651 -0.092234 -0.004824 192000000.000000 20.000000 0.000009 1.000000 1.000000 0.000000 0.000000
0.483627 0.815043 -0.093092 -0.004824 193333328.000000 20.000000 0.000009 1.000000 1.000000 0.000000 0.000000
0.486962 0.818433 -0.093965 -0.004824 194666672.000000 20.000000 0.000009 1.000000 1.000000 0.000000 0.000000
0.490297 0.821822 -0.094854 -0.004824 196000000.000000 20.000000 0.000009 1.000000 1.000000 0.000000 0.000000
0.493632 0.825209 -0.095761 -0.004824 197333328.000000 20.000000 0.000009 1.000000 1.000000 0.000000 0.000000
0.496967 0.828594 -0.096685 -0.004824 198666672.000000 20.000000 0.000009 1.000000 1.000000 0.000000 0.000000
0.500302 0.831977 -0.097627 -0.004824 200000000.000000 20.000000 0.000009 1.000000 1.000000 0.000000 0.000000
0.503637 0.835359 -0.098588 -0.004824 201333328.000000 20.000000 0.000009 1.000000 1.000000 0.000000 0.000000
0.506972 0.838740 -0.099570 -0.004824 202666672.000000 20.000000 0.000009 1.000000 1.000000 0.000000 0.000000
0.510307 0.842119 -0.100573 -0.004824 204000000.000000 20.000000 0.000009 1.000000 1.000000 0.000000 0.000000
0.513642 0.845496 -0.101597 -0.004824 205333328.000000 20.000000 0.000009 1.000000 1.000000 0.000000 0.000000
0.516977 0.848872 -0.102644 -0.004824 206666672.000000 20.000000 0.000009 1.000000 1.000000 0.000000 0.000000
0.520312 0.852247 -0.103715 -0.004824 208000000.000000 20.000000 0.000009 1.000000 1.000000 0.000000 0.000000
0.523647 0.855621 -0.104811 -0.004824 209333328.000000 20.000000 0.000009 1.000000 1.000000 0.000000 0.000000
0.526982 0.858993 -0.105934 -0.004824 210666672.000000 20.000000 0.000009 1.000000 1.000000 0.000000 0.000000
0.530317 0.862364 -0.107084 -0.004824 212000000.000000 20.000000 0.000009 1.000000 1.000000 0.000000 0.000000
0.533652 0.865734 -0.108263 -0.004824 213333328.000000 20.000000 0.000009 1.000000 1.000000 0.000000 0.000000
0.536987 0.869103 -0.109473 -0.004824 214666672.000000 20.000000 0.000009 1.000000 1.000000 0.000000 0.000000
0.540322 0.872470 -0.110715 -0.004824 216000000.000000 20.000000 0.000009 1.000000 1.000000 0.000000 0.000000
0.543657 0.875837 -0.111991 -0.004824 217333328.000000 20.000000 0.000009 1.000000 1.000000 0.000000 0.000000
0.546992 0.879203 -0.113303 -0.004824 218666672.000000 20.000000 0.000009 1.000000 1.000000 0.000000 0.000000
0.550327 0.882567 -0.114653 -0.004824 220000000.000000 20.000000 0.000009 1.000000 1.000000 0.000000 0.000000
0.553662 0.885931 -0.116043 -0.004824 221333328.000000 20.000000 0.000009 1.000000 1.000000 0.000000 0.000000
0.556997 0.889294 -0.117476 -0.004824 222666672.000000 20.000000 0.000009 1.000000 1.000000 0.000000 0.000000
0.560332 0.892656 -0.118955 -0.004824 224000000.000000 20.000000 0.000009 1.000000 1.000000 0.000000 0.000000
0.563667 0.896016 -0.120482 -0.004824 225333328.000000 20.000000 0.000009 1.000000 1.000000 0.000000 0.000000
0.567002 0.899377 -0.122061 -0.004824 226666672.000000 20.000000 0.000009 1.000000 1.000000 0.000000 0.000000
0.570337 0.902736 -0.123695 -0.004824 228000000.000000 20.000000 0.000009 1.000000 1.000000 0.000000 0.000000
0.573672 0.906094 -0.125388 -0.004824 229333328.000000 20.000000 0.000009 1.000000 1.000000 0.000000 0.000000
0.577007 0.909452 -0.127146 -0.004824 230666672.000000 20.000000 0.000009 1.000000 1.000000 0.000000 0.000000
0.580342 0.912809 -0.128971 -0.004824 232000000.000000 20.000000 0.000009 1.000000 1.000000 0.000000 0.000000
0.583677 0.916165 -0.130871 -0.004824 233333328.000000 20.000000 0.000009 1.000000 1.000000 0.000000 0.000000
0.587012 0.919521 -0.132851 -0.004824 234666672.000000 20.000000 0.000009 1.000000 1.000000 0.000000 0.000000
0.590347 0.922876 -0.134919 -0.004824 236000000.000000 20.000000 0.000009 1.000000 1.000000 0.000000 0.000000
0.593682 0.926230 -0.137081 -0.004824 237333328.000000 20.000000 0.000009 1.000000 1.000000 0.000000 0.000000
0.597017 0.929584 -0.139347 -0.004824 238666672.000000 20.000000 0.000009 1.000000 1.000000 0.000000 0.000000
0.600352 0.932937 -0.141728 -0.004824 240000000.000000 20.000000 0.000009 1.000000 1.000000 0.000000 0.000000
0.603687 0.936290 -0.144235 -0.004824 241333328.000000 20.000000 0.000009 1.000000 1.000000 0.000000 0.000000
