tita titas E[V] ic ti d[cm] L lambda omega
0.000010 0.000010 -0.118260 -0.048242 0.000000 0.020000 0.090000 0.010000 0.010000 0.000000 0.000000
0.003345 0.006601 -0.118604 -0.048242 133.333328 0.020000 0.090000 0.010000 0.010000 0.000000 0.000000
0.006680 0.010009 -0.118782 -0.048242 266.666656 0.020000 0.090000 0.010000 0.010000 0.000000 0.000000
0.010015 0.013347 -0.118957 -0.048242 400.000000 0.020000 0.090000 0.010000 0.010000 0.000000 0.000000
0.013350 0.016682 -0.119133 -0.048242 533.333313 0.020000 0.090000 0.010000 0.010000 0.000000 0.000000
0.016685 0.020017 -0.119309 -0.048242 666.666687 0.020000 0.090000 0.010000 0.010000 0.000000 0.000000
0.020020 0.023352 -0.119486 -0.048242 800.000000 0.020000 0.090000 0.010000 0.010000 0.000000 0.000000
0.023355 0.026687 -0.119663 -0.048242 933.333313 0.020000 0.090000 0.010000 0.010000 0.000000 0.000000
0.026690 0.030022 -0.119841 -0.048242 1066.666626 0.020000 0.090000 0.010000 0.010000 0.000000 0.000000
0.030025 0.033357 -0.120019 -0.048242 1200.000000 0.020000 0.090000 0.010000 0.010000 0.000000 0.000000
0.033360 0.036692 -0.120198 -0.048242 1333.333374 0.020000 0.090000 0.010000 0.010000 0.000000 0.000000
0.036695 0.040027 -0.120378 -0.048242 1466.666626 0.020000 0.090000 0.010000 0.010000 0.000000 0.000000
0.040030 0.043362 -0.120558 -0.048242 1600.000000 0.020000 0.090000 0.010000 0.010000 0.000000 0.000000
0.043365 0.046697 -0.120739 -0.048242 1733.333374 0.020000 0.090000 0.010000 0.010000 0.000000 0.000000
0.046700 0.050032 -0.120921 -0.048242 1866.666626 0.020000 0.090000 0.010000 0.010000 0.000000 0.000000
0.050035 0.053367 -0.121103 -0.048242 2000.000000 0.020000 0.090000 0.010000 0.010000 0.000000 0.000000
0.053370 0.056702 -0.121286 -0.048242 2133.333252 0.020000 0.090000 0.010000 0.010000 0.000000 0.000000
0.056705 0.060037 -0.121469 -0.048242 2266.666748 0.020000 0.090000 0.010000 0.010000 0.000000 0.000000
0.060040 0.063372 -0.121653 -0.048242 2400.000000 0.020000 0.090000 0.010000 0.010000 0.000000 0.000000
0.063375 0.066707 -0.121838 -0.048242 2533.333252 0.020000 0.090000 0.010000 0.010000 0.000000 0.000000
0.066710 0.070042 -0.122023 -0.048242 2666.666748 0.020000 0.090000 0.010000 0.010000 0.000000 0.000000
0.070045 0.073377 -0.122209 -0.048242 2800.000000 0.020000 0.090000 0.010000 0.010000 0.000000 0.000000
0.073380 0.076712 -0.122396 -0.048242 2933.333252 0.020000 0.090000 0.010000 0.010000 0.000000 0.000000
0.076715 0.080047 -0.122583 -0.048242 3066.666748 0.020000 0.090000 0.010000 0.010000 0.000000 0.000000
0.080050 0.083382 -0.122771 -0.048242 3200.000000 0.020000 0.090000 0.010000 0.010000 0.000000 0.000000
0.083385 0.086717 -0.122960 -0.048242 3333.333252 0.020000 0.090000 0.010000 0.010000 0.000000 0.000000
0.086720 0.090052 -0.123149 -0.048242 3466.666748 0.020000 0.090000 0.010000 0.010000 0.000000 0.000000
0.090055 0.093387 -0.123339 -0.048242 3600.000000 0.020000 0.090000 0.010000 0.010000 0.000000 0.000000
0.093390 0.096722 -0.123530 -0.048242 3733.333252 0.020000 0.090000 0.010000 0.010000 0.000000 0.000000
0.096725 0.100057 -0.123721 -0.048242 3866.666748 0.020000 0.090000 0.010000 0.010000 0.000000 0.000000
0.100060 0.103392 -0.123913 -0.048242 4000.000000 0.020000 0.090000 0.010000 0.010000 0.000000 0.000000
0.103395 0.106727 -0.124106 -0.048242 4133.333496 0.020000 0.090000 0.010000 0.010000 0.000000 0.000000
0.106730 0.110062 -0.124299 -0.048242 4266.666504 0.020000 0.090000 0.010000 0.010000 0.000000 0.000000
0.110065 0.113397 -0.124493 -0.048242 4400.000000 0.020000 0.090000 0.010000 0.010000 0.000000 0.000000
0.113400 0.116732 -0.124688 -0.048242 4533.333496 0.020000 0.090000 0.010000 0.010000 0.000000 0.000000
0.116735 0.120067 -0.124884 -0.048242 4666.666504 0.020000 0.090000 0.010000 0.010000 0.000000 0.000000
0.120070 0.123402 -0.125080 -0.048242 4800.000000 0.020000 0.090000 0.010000 0.010000 0.000000 0.000000
0.123405 0.126737 -0.125277 -0.048242 4933.333496 0.020000 0.090000 0.010000 0.010000 0.000000 0.000000
0.126740 0.130072 -0.125475 -0.048242 5066.666504 0.020000 0.090000 0.010000 0.010000 0.000000 0.000000
0.130075 0.133407 -0.125673 -0.048242 5200.000000 0.020000 0.090000 0.010000 0.010000 0.000000 0.000000
0.133410 0.136742 -0.125873 -0.048242 5333.333496 0.020000 0.090000 0.010000 0.010000 0.000000 0.000000
0.136745 0.140077 -0.126073 -0.048242 5466.666504 0.020000 0.090000 0.010000 0.010000 0.000000 0.000000
0.140080 0.143412 -0.126274 -0.048242 5600.000000 0.020000 0.090000 0.010000 0.010000 0.000000 0.000000
0.143415 0.146747 -0.126475 -0.048242 5733.333496 0.020000 0.090000 0.010000 0.010000 0.000000 0.000000
0.146750 0.150082 -0.126677 -0.048242 5866.666504 0.020000 0.090000 0.010000 0.010000 0.000000 0.000000
0.150085 0.153417 -0.126881 -0.048242 6000.000000 0.020000 0.090000 0.010000 0.010000 0.000000 0.000000
0.153420 0.156752 -0.127085 -0.048242 6133.333496 0.020000 0.090000 0.010000 0.010000 0.000000 0.000000
0.156755 0.160087 -0.127289 -0.048242 6266.666504 0.020000 0.090000 0.010000 0.010000 0.000000 0.000000
0.160090 0.163422 -0.127495 -0.048242 6400.000000 0.020000 0.090000 0.010000 0.010000 0.000000 0.000000
0.163425 0.166757 -0.127701 -0.048242 6533.333496 0.020000 0.090000 0.010000 0.010000 0.000000 0.000000
0.166760 0.170092 -0.127908 -0.048242 6666.666504 0.020000 0.090000 0.010000 0.010000 0.000000 0.000000
0.170095 0.173427 -0.128116 -0.048242 6800.000000 0.020000 0.090000 0.010000 0.010000 0.000000 0.000000
0.173430 0.176762 -0.128325 -0.048242 6933.333496 0.020000 0.090000 0.010000 0.010000 0.000000 0.000000
0.176765 0.180097 -0.128534 -0.048242 7066.666504 0.020000 0.090000 0.010000 0.010000 0.000000 0.000000
0.180100 0.183432 -0.128745 -0.048242 7200.000000 0.020000 0.090000 0.010000 0.010000 0.000000 0.000000
0.183435 0.186767 -0.128956 -0.048242 7333.333496 0.020000 0.090000 0.010000 0.010000 0.000000 0.000000
0.186770 0.190102 -0.129168 -0.048242 7466.666504 0.020000 0.090000 0.010000 0.010000 0.000000 0.000000
0.190105 0.193437 -0.129381 -0.048242 7600.000000 0.020000 0.090000 0.010000 0.010000 0.000000 0.000000
0.193440 0.196772 -0.129595 -0.048242 7733.333496 0.020000 0.090000 0.010000 0.010000 0.000000 0.000000
0.196775 0.200107 -0.129810 -0.048242 7866.666504 0.020000 0.090000 0.010000 0.010000 0.000000 0.000000
0.200110 0.203442 -0.130025 -0.048242 8000.000000 0.020000 0.090000 0.010000 0.010000 0.000000 0.000000
0.203445 0.206777 -0.130242 -0.048242 8133.333496 0.020000 0.090000 0.010000 0.010000 0.000000 0.000000
0.206780 0.210112 -0.130459 -0.048242 8266.666992 0.020000 0.090000 0.010000 0.010000 0.000000 0.000000
0.210115 0.213447 -0.130677 -0.048242 8400.000000 0.020000 0.090000 0.010000 0.010000 0.000000 0.000000
0.213450 0.216782 -0.130897 -0.048242 8533.333008 0.020000 0.090000 0.010000 0.010000 0.000000 0.000000
0.216785 0.220117 -0.131117 -0.048242 8666.666992 0.020000 0.090000 0.010000 0.010000 0.000000 0.000000
0.220120 0.223452 -0.131338 -0.048242 8800.000000 0.020000 0.090000 0.010000 0.010000 0.000000 0.000000
0.223455 0.226787 -0.131560 -0.048242 8933.333008 0.020000 0.090000 0.010000 0.010000 0.000000 0.000000
0.226790 0.230122 -0.131783 -0.048242 9066.666992 0.020000 0.090000 0.010000 0.010000 0.000000 0.000000
0.230125 0.233457 -0.132007 -0.048242 9200.000000 0.020000 0.090000 0.010000 0.010000 0.000000 0.000000
0.233460 0.236792 -0.132231 -0.048242 9333.333008 0.020000 0.090000 0.010000 0.010000 0.000000 0.000000
0.236795 0.240127 -0.132457 -0.048242 9466.666992 0.020000 0.090000 0.010000 0.010000 0.000000 0.000000
0.240130 0.243462 -0.132684 -0.048242 9600.000000 0.020000 0.090000 0.010000 0.010000 0.000000 0.000000
0.243465 0.246797 -0.132912 -0.048242 9733.333008 0.020000 0.090000 0.010000 0.010000 0.000000 0.000000
0.246800 0.250132 -0.133141 -0.048242 9866.666992 0.020000 0.090000 0.010000 0.010000 0.000000 0.000000
0.250135 0.253467 -0.133370 -0.048242 10000.000000 0.020000 0.090000 0.010000 0.010000 0.000000 0.000000
0.253470 0.256802 -0.133601 -0.048242 10133.333008 0.020000 0.090000 0.010000 0.010000 0.000000 0.000000
0.256805 0.260137 -0.133833 -0.048242 10266.666992 0.020000 0.090000 0.010000 0.010000 0.000000 0.000000
0.260140 0.263472 -0.134066 -0.048242 10400.000000 0.020000 0.090000 0.010000 0.010000 0.000000 0.000000
0.263475 0.266807 -0.134300 -0.048242 10533.333008 0.020000 0.090000 0.010000 0.010000 0.000000 0.000000
0.266810 0.270142 -0.134535 -0.048242 10666.666992 0.020000 0.090000 0.010000 0.010000 0.000000 0.000000
0.270145 0.273477 -0.134771 -0.048242 10800.000000 0.020000 0.090000 0.010000 0.010000 0.000000 0.000000
0.273480 0.276812 -0.135008 -0.048242 10933.333008 0.020000 0.090000 0.010000 0.010000 0.000000 0.000000
0.276815 0.280147 -0.135246 -0.048242 11066.666992 0.020000 0.090000 0.010000 0.010000 0.000000 0.000000
0.280150 0.283482 -0.135485 -0.048242 11200.000000 0.020000 0.090000 0.010000 0.010000 0.000000 0.000000
0.283486 0.286817 -0.135725 -0.048242 11333.333008 0.020000 0.090000 0.010000 0.010000 0.000000 0.000000
0.286821 0.290152 -0.135967 -0.048242 11466.666992 0.020000 0.090000 0.010000 0.010000 0.000000 0.000000
0.290156 0.293487 -0.136209 -0.048242 11600.000000 0.020000 0.090000 0.010000 0.010000 0.000000 0.000000
0.293490 0.296822 -0.136453 -0.048242 11733.333008 0.020000 0.090000 0.010000 0.010000 0.000000 0.000000
0.296825 0.300157 -0.136698 -0.048242 11866.666992 0.020000 0.090000 0.010000 0.010000 0.000000 0.000000
0.300160 0.303492 -0.136944 -0.048242 12000.000000 0.020000 0.090000 0.010000 0.010000 0.000000 0.000000
0.303495 0.306827 -0.137191 -0.048242 12133.333008 0.020000 0.090000 0.010000 0.010000 0.000000 0.000000
0.306830 0.310162 -0.137440 -0.048242 12266.666992 0.020000 0.090000 0.010000 0.010000 0.000000 0.000000
0.310165 0.313497 -0.137689 -0.048242 12400.000000 0.020000 0.090000 0.010000 0.010000 0.000000 0.000000
0.313500 0.316832 -0.137940 -0.048242 12533.333008 0.020000 0.090000 0.010000 0.010000 0.000000 0.000000
0.316835 0.320167 -0.138192 -0.048242 12666.666992 0.020000 0.090000 0.010000 0.010000 0.000000 0.000000
0.320170 0.323502 -0.138445 -0.048242 12800.000000 0.020000 0.090000 0.010000 0.010000 0.000000 0.000000
0.323505 0.326837 -0.138699 -0.048242 12933.333008 0.020000 0.090000 0.010000 0.010000 0.000000 0.000000
0.326840 0.330172 -0.138955 -0.048242 13066.666992 0.020000 0.090000 0.010000 0.010000 0.000000 0.000000
0.330175 0.333507 -0.139212 -0.048242 13200.000000 0.020000 0.090000 0.010000 0.010000 0.000000 0.000000
0.333510 0.336842 -0.139470 -0.048242 13333.333008 0.020000 0.090000 0.010000 0.010000 0.000000 0.000000
0.336845 0.340177 -0.139730 -0.048242 13466.666992 0.020000 0.090000 0.010000 0.010000 0.000000 0.000000
0.340181 0.343512 -0.139990 -0.048242 13600.000000 0.020000 0.090000 0.010000 0.010000 0.000000 0.000000
0.343516 0.346847 -0.140253 -0.048242 13733.333008 0.020000 0.090000 0.010000 0.010000 0.000000 0.000000
0.346851 0.350182 -0.140516 -0.048242 13866.666992 0.020000 0.090000 0.010000 0.010000 0.000000 0.000000
0.350186 0.353517 -0.140781 -0.048242 14000.000000 0.020000 0.090000 0.010000 0.010000 0.000000 0.000000
0.353521 0.356852 -0.141047 -0.048242 14133.333008 0.020000 0.090000 0.010000 0.010000 0.000000 0.000000
0.356856 0.360187 -0.141314 -0.048242 14266.666992 0.020000 0.090000 0.010000 0.010000 0.000000 0.000000
0.360191 0.363522 -0.141583 -0.048242 14400.000000 0.020000 0.090000 0.010000 0.010000 0.000000 0.000000
0.363526 0.366857 -0.141854 -0.048242 14533.333008 0.020000 0.090000 0.010000 0.010000 0.000000 0.000000
0.366861 0.370192 -0.142125 -0.048242 14666.666992 0.020000 0.090000 0.010000 0.010000 0.000000 0.000000
0.370196 0.373527 -0.142398 -0.048242 14800.000000 0.020000 0.090000 0.010000 0.010000 0.000000 0.000000
0.373531 0.376862 -0.142673 -0.048242 14933.333008 0.020000 0.090000 0.010000 0.010000 0.000000 0.000000
0.376866 0.380197 -0.142949 -0.048242 15066.666992 0.020000 0.090000 0.010000 0.010000 0.000000 0.000000
0.380201 0.383532 -0.143226 -0.048242 15200.000000 0.020000 0.090000 0.010000 0.010000 0.000000 0.000000
0.383536 0.386867 -0.143505 -0.048242 15333.333008 0.020000 0.090000 0.010000 0.010000 0.000000 0.000000
0.386871 0.390202 -0.143786 -0.048242 15466.666992 0.020000 0.090000 0.010000 0.010000 0.000000 0.000000
0.390206 0.393537 -0.144068 -0.048242 15600.000000 0.020000 0.090000 0.010000 0.010000 0.000000 0.000000
0.393541 0.396872 -0.144352 -0.048242 15733.333008 0.020000 0.090000 0.010000 0.010000 0.000000 0.000000
0.396876 0.400207 -0.144637 -0.048242 15866.666992 0.020000 0.090000 0.010000 0.010000 0.000000 0.000000
0.400211 0.403542 -0.144923 -0.048242 16000.000000 0.020000 0.090000 0.010000 0.010000 0.000000 0.000000
0.403546 0.406877 -0.145212 -0.048242 16133.333008 0.020000 0.090000 0.010000 0.010000 0.000000 0.000000
0.406881 0.410212 -0.145502 -0.048242 16266.666992 0.020000 0.090000 0.010000 0.010000 0.000000 0.000000
0.410216 0.413547 -0.145793 -0.048242 16400.000000 0.020000 0.090000 0.010000 0.010000 0.000000 0.000000
0.413551 0.416882 -0.146086 -0.048242 16533.333984 0.020000 0.090000 0.010000 0.010000 0.000000 0.000000
0.416886 0.420217 -0.146381 -0.048242 16666.666016 0.020000 0.090000 0.010000 0.010000 0.000000 0.000000
0.420221 0.423552 -0.146678 -0.048242 16800.000000 0.020000 0.090000 0.010000 0.010000 0.000000 0.000000
0.423556 0.426887 -0.146976 -0.048242 16933.333984 0.020000 0.090000 0.010000 0.010000 0.000000 0.000000
0.426891 0.430222 -0.147276 -0.048242 17066.666016 0.020000 0.090000 0.010000 0.010000 0.000000 0.000000
0.430226 0.433557 -0.147578 -0.048242 17200.000000 0.020000 0.090000 0.010000 0.010000 0.000000 0.000000
0.433561 0.436892 -0.147881 -0.048242 17333.333984 0.020000 0.090000 0.010000 0.010000 0.000000 0.000000
0.436896 0.440227 -0.148186 -0.048242 17466.666016 0.020000 0.090000 0.010000 0.010000 0.000000 0.000000
0.440231 0.443562 -0.148494 -0.048242 17600.000000 0.020000 0.090000 0.010000 0.010000 0.000000 0.000000
0.443566 0.446897 -0.148803 -0.048242 17733.333984 0.020000 0.090000 0.010000 0.010000 0.000000 0.000000
0.446901 0.450232 -0.149113 -0.048242 17866.666016 0.020000 0.090000 0.010000 0.010000 0.000000 0.000000
0.450236 0.453567 -0.149426 -0.048242 18000.000000 0.020000 0.090000 0.010000 0.010000 0.000000 0.000000
0.453571 0.456902 -0.149741 -0.048242 18133.333984 0.020000 0.090000 0.010000 0.010000 0.000000 0.000000
0.455253 0.458585 -0.149900 -0.048242 18200.613281 0.020000 0.090000 0.010000 0.010000 0.000000 0.000000
